swefdsfsdf,sdfdsfdsf
t,h(t)
0,9.42477796076938
0.02,5.036321762906628
0.04,2.7179902776343123
0.06,1.495887103446703
0.08,0.8475324121864317
0.1,0.49878303023049453
0.12000000000000001,0.3074652042263024
0.14,0.20004277918902807
0.16,0.13830450689963164
0.18,0.10220311851705237
0.19999999999999998,0.08111069867981449
0.21999999999999997,0.06938434043163057
0.23999999999999996,0.06413330522977885
0.25999999999999995,0.06413330522977885
0.27999999999999997,0.06938434043163057
0.3,0.08111069867981442
0.32,0.10220311851705245
0.34,0.13830450689963178
0.36000000000000004,0.20004277918902807
0.38000000000000006,0.3074652042263028
0.4000000000000001,0.4987830302304954
0.4200000000000001,0.8475324121864336
0.4400000000000001,1.4958871034467074
0.46000000000000013,2.717990277634324
0.48000000000000015,5.036321762906655
0.5000000000000001,9.424777960769415
0.5200000000000001,17.637165334436403
0.5400000000000001,32.68092617576151
0.5600000000000002,59.38044348743823
0.5800000000000002,104.80594999388113
0.6000000000000002,178.0863305809677
0.6200000000000002,288.8991612346028
0.6400000000000002,444.03722028811166
0.6600000000000003,642.2526756432195
0.6800000000000003,869.1167246035058
0.7000000000000003,1095.126056803529
0.7200000000000003,1280.2087482164873
0.7400000000000003,1385.0282515699764
0.7600000000000003,1385.0282515699753
0.7800000000000004,1280.2087482164827
0.8000000000000004,1095.1260568035223
0.8200000000000004,869.116724603498
0.8400000000000004,642.252675643212
0.8600000000000004,444.03722028810733
0.8800000000000004,288.89916123459903
0.9000000000000005,178.08633058096498
0.9200000000000005,104.80594999387945
0.9400000000000005,59.38044348743721
0.9600000000000005,32.680926175760945
0.9800000000000005,17.637165334436087
1.0000000000000004,9.424777960769266
1.0200000000000005,5.036321762906565
1.0400000000000005,2.7179902776342755
1.0600000000000005,1.4958871034466823
1.0800000000000005,0.8475324121864205
1.1000000000000005,0.4987830302304879
1.1200000000000006,0.30746520422629875
1.1400000000000006,0.20004277918902566
1.1600000000000006,0.1383045068996303
1.1800000000000006,0.10220311851705181
1.2000000000000006,0.08111069867981406
1.2200000000000006,0.06938434043163039
1.2400000000000007,0.0641333052297788
1.2600000000000007,0.0641333052297789
1.2800000000000007,0.06938434043163082
1.3000000000000007,0.08111069867981506
1.3200000000000007,0.10220311851705337
1.3400000000000007,0.138304506899633
1.3600000000000008,0.200042779189031
1.3800000000000008,0.3074652042263069
1.4000000000000008,0.49878303023050474
1.4200000000000008,0.8475324121864476
1.4400000000000008,1.4958871034467398
1.4600000000000009,2.717990277634373
1.4800000000000009,5.036321762906771
1.5000000000000009,9.424777960769614
1.520000000000001,17.63716533443689
1.540000000000001,32.680926175762245
1.560000000000001,59.38044348743974
1.580000000000001,104.80594999388322
1.600000000000001,178.08633058097033
1.620000000000001,288.8991612346078
1.640000000000001,444.03722028811757
1.660000000000001,642.252675643228
1.680000000000001,869.1167246035135
1.700000000000001,1095.126056803538
1.720000000000001,1280.208748216493
1.740000000000001,1385.0282515699787
1.7600000000000011,1385.0282515699726
1.7800000000000011,1280.2087482164757
1.8000000000000012,1095.1260568035154
1.8200000000000012,869.1167246034887
1.8400000000000012,642.2526756432046
1.8600000000000012,444.0372202881014
1.8800000000000012,288.8991612345937
1.9000000000000012,178.08633058096208
1.9200000000000013,104.80594999387712
1.9400000000000013,59.38044348743607
1.9600000000000013,32.680926175760135
1.9800000000000013,17.63716533443572
2.0000000000000013,9.424777960768983
2.0200000000000014,5.036321762906437
2.0400000000000014,2.7179902776341973
2.0600000000000014,1.4958871034466465
2.0800000000000014,0.8475324121863979
2.1000000000000014,0.4987830302304777
2.1200000000000014,0.30746520422629386
2.1400000000000015,0.20004277918902247
2.1600000000000015,0.1383045068996287
2.1800000000000015,0.10220311851705045
2.2000000000000015,0.08111069867981341
2.2200000000000015,0.06938434043162996
2.2400000000000015,0.06413330522977867
2.2600000000000016,0.06413330522977902
2.2800000000000016,0.06938434043163119
2.3000000000000016,0.08111069867981571
2.3200000000000016,0.10220311851705445
2.3400000000000016,0.13830450689963558
2.3600000000000017,0.2000427791890343
2.3800000000000017,0.30746520422631457
2.4000000000000017,0.4987830302305149
2.4200000000000017,0.8475324121864668
2.4400000000000017,1.4958871034467751
2.4600000000000017,2.71799027763444
2.4800000000000018,5.036321762906897
2.5000000000000018,9.424777960769852
2.520000000000002,17.637165334437334
2.540000000000002,32.68092617576305
2.560000000000002,59.380443487441156
2.580000000000002,104.8059499938856
2.600000000000002,178.08633058097405
2.620000000000002,288.89916123461495
2.640000000000002,444.0372202881274
2.660000000000002,642.2526756432367
2.680000000000002,869.1167246035227
2.700000000000002,1095.1260568035436
2.720000000000002,1280.2087482164998
2.740000000000002,1385.0282515699814
2.760000000000002,1385.0282515699716
2.780000000000002,1280.2087482164725
2.800000000000002,1095.1260568035038
2.820000000000002,869.1167246034788
2.840000000000002,642.2526756431965
2.860000000000002,444.0372202880939
2.880000000000002,288.8991612345865
2.900000000000002,178.08633058095708
2.920000000000002,104.80594999387475
2.940000000000002,59.38044348743467
2.960000000000002,32.680926175759616
2.980000000000002,17.63716533443512
3.000000000000002,9.424777960768743
3.0200000000000022,5.03632176290631
3.0400000000000023,2.717990277634154
3.0600000000000023,1.495887103446599
3.0800000000000023,0.847532412186379
3.1000000000000023,0.4987830302304675
3.1200000000000023,0.3074652042262882
3.1400000000000023,0.2000427791890181
3.1600000000000024,0.13830450689962612
3.1800000000000024,0.10220311851704936
3.2000000000000024,0.08111069867981276
3.2200000000000024,0.06938434043162978
3.2400000000000024,0.06413330522977856
3.2600000000000025,0.06413330522977913
3.2800000000000025,0.0693843404316315
3.3000000000000025,0.08111069867981614
3.3200000000000025,0.102203118517056
3.3400000000000025,0.1383045068996374
3.3600000000000025,0.2000427791890375
3.3800000000000026,0.30746520422631823
3.4000000000000026,0.49878303023052867
3.4200000000000026,0.8475324121864919
3.4400000000000026,1.4958871034468104
3.4600000000000026,2.717990277634507
3.4800000000000026,5.036321762906979
3.5000000000000027,9.424777960770177
3.5200000000000027,17.63716533443778
3.5400000000000027,32.68092617576386
3.5600000000000027,59.380443487442065
3.5800000000000027,104.80594999388872
3.6000000000000028,178.08633058097894
3.6200000000000028,288.89916123461853
3.640000000000003,444.0372202881322
3.660000000000003,642.2526756432485
3.680000000000003,869.1167246035351
3.700000000000003,1095.1260568035555
3.720000000000003,1280.2087482165043
3.740000000000003,1385.0282515699826
3.760000000000003,1385.0282515699678
3.780000000000003,1280.2087482164645
3.800000000000003,1095.126056803499
3.820000000000003,869.1167246034732
3.840000000000003,642.2526756431846
3.860000000000003,444.0372202880843
3.880000000000003,288.8991612345829
3.900000000000003,178.08633058095464
3.920000000000003,104.80594999387164
3.940000000000003,59.38044348743277
3.960000000000003,32.68092617575853
3.980000000000003,17.637165334434833
4.000000000000003,9.424777960768589
4.020000000000002,5.036321762906315
4.040000000000002,2.717990277634157
4.060000000000001,1.49588710344665
4.080000000000001,0.8475324121864197
4.1000000000000005,0.4987830302304897
4.12,0.30746520422630447
4.14,0.20004277918902957
4.159999999999999,0.1383045068996341
4.179999999999999,0.10220311851705409
4.199999999999998,0.08111069867981593
4.219999999999998,0.06938434043163137
4.2399999999999975,0.06413330522977918
4.259999999999997,0.0641333052297785
4.279999999999997,0.06938434043162915
4.299999999999996,0.08111069867981117
4.319999999999996,0.10220311851704665
4.339999999999995,0.13830450689962023
4.359999999999995,0.2000427791890079
4.379999999999995,0.3074652042262623
4.399999999999994,0.49878303023042075
4.419999999999994,0.8475324121862801
4.439999999999993,1.4958871034464136
4.459999999999993,2.7179902776337084
4.479999999999992,5.036321762905376
4.499999999999992,9.424777960766983
4.519999999999992,17.637165334431543
4.539999999999991,32.680926175752575
4.559999999999991,59.380443487421395
4.57999999999999,104.80594999385274
4.59999999999999,178.08633058091993
4.6199999999999894,288.89916123453224
4.639999999999989,444.0372202880111
4.659999999999989,642.2526756430888
4.679999999999988,869.1167246033646
4.699999999999988,1095.1260568033929
4.719999999999987,1280.2087482163895
4.739999999999987,1385.0282515699394
4.7599999999999865,1385.0282515700133
4.779999999999986,1280.2087482165916
4.799999999999986,1095.126056803679
4.819999999999985,869.1167246036771
4.839999999999985,642.2526756433866
4.859999999999984,444.0372202882507
4.879999999999984,288.89916123471045
4.8999999999999835,178.0863305810418
4.919999999999983,104.80594999393047
4.939999999999983,59.38044348746815
4.959999999999982,32.680926175779376
4.979999999999982,17.637165334446355
4.999999999999981,9.424777960774962
5.019999999999981,5.036321762909695
5.0399999999999805,2.7179902776359373
5.05999999999998,1.4958871034475902
5.07999999999998,0.8475324121869087
5.099999999999979,0.4987830302307623
5.119999999999979,0.3074652042264519
5.139999999999978,0.20004277918911353
5.159999999999978,0.13830450689968424
5.1799999999999775,0.1022031185170835
5.199999999999977,0.08111069867983242
5.219999999999977,0.06938434043164043
5.239999999999976,0.06413330522978192
5.259999999999976,0.06413330522977582
5.279999999999975,0.06938434043162059
5.299999999999975,0.08111069867979424
5.3199999999999745,0.10220311851701723
5.339999999999974,0.13830450689957147
5.359999999999974,0.20004277918892394
5.379999999999973,0.30746520422611073
5.399999999999973,0.49878303023014814
5.419999999999972,0.8475324121857911
5.439999999999972,1.4958871034454477
5.4599999999999715,2.717990277631928
5.479999999999971,5.0363217629020856
5.499999999999971,9.424777960760776
5.51999999999997,17.63716533441971
5.53999999999997,32.680926175731166
5.559999999999969,59.38044348738504
5.579999999999969,104.80594999378899
5.599999999999969,178.08633058082242
5.619999999999968,288.8991612343898
5.639999999999968,444.0372202878246
5.659999999999967,642.2526756428566
5.679999999999967,869.1167246031135
5.699999999999966,1095.1260568031691
5.719999999999966,1280.2087482162315
5.739999999999966,1385.0282515698805
5.759999999999965,1385.0282515700724
5.779999999999965,1280.2087482167499
5.799999999999964,1095.1260568039143
5.819999999999964,869.116724603928
5.839999999999963,642.2526756436131
5.859999999999963,444.037220288437
5.879999999999963,288.89916123485284
5.899999999999962,178.08633058113932
5.919999999999962,104.80594999399098
5.939999999999961,59.38044348750646
5.959999999999961,32.68092617580078
5.9799999999999605,17.63716533445819
5.99999999999996,9.424777960781167
6.01999999999996,5.036321762913073
6.039999999999959,2.7179902776377176
6.059999999999959,1.4958871034485062
6.079999999999958,0.8475324121873979
6.099999999999958,0.49878303023103543
6.1199999999999575,0.3074652042266036
6.139999999999957,0.20004277918919977
6.159999999999957,0.13830450689973434
6.179999999999956,0.10220311851711292
6.199999999999956,0.08111069867984937
6.219999999999955,0.06938434043164875
6.239999999999955,0.0641333052297846
6.2599999999999545,0.06413330522977304
6.279999999999954,0.06938434043161178
6.299999999999954,0.08111069867977817
6.319999999999953,0.10220311851698782
6.339999999999953,0.13830450689952134
6.359999999999952,0.20004277918883767
6.379999999999952,0.30746520422595913
6.3999999999999515,0.498783030229875
6.419999999999951,0.8475324121852887
6.439999999999951,1.495887103444557
6.45999999999995,2.717990277630148
6.47999999999995,5.036321762898707
6.499999999999949,9.424777960754405
6.519999999999949,17.637165334407875
6.5399999999999485,32.680926175709764
6.559999999999948,59.38044348734771
6.579999999999948,104.80594999373015
6.599999999999947,178.08633058072505
6.619999999999947,288.89916123424723
6.639999999999946,444.03722028763326
6.659999999999946,642.252675642636
6.6799999999999455,869.1167246028635
6.699999999999945,1095.1260568029415
6.719999999999945,1280.208748216069
6.739999999999944,1385.0282515698216
6.759999999999944,1385.0282515701301
6.779999999999943,1280.2087482169125
6.799999999999943,1095.1260568041312
6.8199999999999426,869.1167246041774
6.839999999999942,642.2526756438458
6.859999999999942,444.0372202886283
6.879999999999941,288.89916123499523
6.899999999999941,178.08633058123675
6.91999999999994,104.80594999405307
6.93999999999994,59.380443487541825
6.95999999999994,32.68092617582218
6.979999999999939,17.63716533447002
6.999999999999939,9.424777960787543
7.019999999999938,5.036321762916274
7.039999999999938,2.717990277639498
7.059999999999937,1.495887103449447
7.079999999999937,0.8475324121879001
7.099999999999937,0.49878303023130816
7.119999999999936,0.3074652042267552
7.139999999999936,0.20004277918928595
7.159999999999935,0.13830450689978188
7.179999999999935,0.10220311851714232
7.1999999999999345,0.08111069867986637
7.219999999999934,0.0693843404316575
7.239999999999934,0.06413330522978739
7.259999999999933,0.06413330522977036
7.279999999999933,0.06938434043160302
7.299999999999932,0.08111069867976126
7.319999999999932,0.10220311851695833
7.3399999999999315,0.13830450689947124
7.359999999999931,0.20004277918875152
7.379999999999931,0.3074652042258155
7.39999999999993,0.4987830302296023
7.41999999999993,0.8475324121847866
7.439999999999929,1.4958871034436163
7.459999999999929,2.7179902776283678
7.4799999999999285,5.036321762895328
7.499999999999928,9.424777960748031
7.519999999999928,17.637165334396663
7.539999999999927,32.680926175688356
7.559999999999927,59.38044348731037
7.579999999999926,104.80594999366801
7.599999999999926,178.08633058062762
7.6199999999999255,288.89916123410484
7.639999999999925,444.0372202874416
7.659999999999925,642.2526756424031
7.679999999999924,869.1167246026134
7.699999999999924,1095.1260568027121
7.719999999999923,1280.2087482159072
7.739999999999923,1385.028251569766
7.7599999999999225,1385.0282515701892
7.779999999999922,1280.208748217075
7.799999999999922,1095.12605680436
7.819999999999921,869.1167246044282
7.839999999999921,642.2526756440785
7.85999999999992,444.0372202888198
7.87999999999992,288.8991612351302
7.8999999999999195,178.08633058133412
7.919999999999919,104.80594999411514
7.939999999999919,59.38044348757916
7.959999999999918,32.680926175842465
7.979999999999918,17.637165334481853
7.999999999999917,9.424777960793914
8.019999999999918,5.036321762919655
8.039999999999917,2.717990277641184
8.059999999999917,1.4958871034503383
8.079999999999917,0.8475324121883757
8.099999999999916,0.49878303023156656
8.119999999999916,0.3074652042268987
8.139999999999915,0.2000427791893677
8.159999999999915,0.13830450689982943
8.179999999999914,0.10220311851717018
8.199999999999914,0.08111069867988235
8.219999999999914,0.06938434043166582
8.239999999999913,0.06413330522978995
8.259999999999913,0.06413330522976773
8.279999999999912,0.06938434043159471
8.299999999999912,0.08111069867974519
8.319999999999911,0.10220311851693045
8.339999999999911,0.1383045068994237
8.35999999999991,0.2000427791886698
8.37999999999991,0.3074652042256639
8.39999999999991,0.4987830302293436
8.41999999999991,0.8475324121843109
8.439999999999909,1.495887103442725
8.459999999999908,2.717990277626681
8.479999999999908,5.036321762892126
8.499999999999908,9.424777960741991
8.519999999999907,17.637165334385454
8.539999999999907,32.68092617566808
8.559999999999906,59.380443487274995
8.579999999999906,104.80594999360918
8.599999999999905,178.08633058053528
8.619999999999905,288.8991612339699
8.639999999999905,444.0372202872606
8.659999999999904,642.2526756421829
8.679999999999904,869.1167246023764
8.699999999999903,1095.1260568024952
8.719999999999903,1280.2087482157528
8.739999999999903,1385.028251569707
8.759999999999902,1385.0282515702459
8.779999999999902,1280.2087482172274
8.799999999999901,1095.1260568045766
8.8199999999999,869.1167246046651
8.8399999999999,642.2526756442993
8.8599999999999,444.037220289001
8.8799999999999,288.8991612352652
8.899999999999899,178.08633058142647
8.919999999999899,104.80594999417403
8.939999999999898,59.380443487614535
8.959999999999898,32.68092617586387
8.979999999999897,17.637165334493062
8.999999999999897,9.424777960799954
9.019999999999897,5.036321762922855
9.039999999999896,2.7179902776429645
9.059999999999896,1.4958871034512786
9.079999999999895,0.8475324121888783
9.099999999999895,0.49878303023182535
9.119999999999894,0.30746520422705026
9.139999999999894,0.20004277918945396
9.159999999999894,0.13830450689987941
9.179999999999893,0.1022031185171996
9.199999999999893,0.08111069867989935
9.219999999999892,0.06938434043167463
9.239999999999892,0.06413330522979252
9.259999999999891,0.06413330522976506
9.279999999999891,0.0693843404315859
9.29999999999989,0.08111069867972827
9.31999999999989,0.10220311851690105
9.33999999999989,0.13830450689937368
9.35999999999989,0.20004277918858354
9.379999999999889,0.3074652042255205
9.399999999999888,0.49878303022907067
9.419999999999888,0.8475324121838084
9.439999999999888,1.4958871034417849
9.459999999999887,2.7179902776249945
9.479999999999887,5.036321762888748
9.499999999999886,9.424777960735618
9.519999999999886,17.637165334373623
9.539999999999885,32.68092617564667
9.559999999999885,59.38044348723767
9.579999999999885,104.8059499935471
9.599999999999884,178.08633058044305
9.619999999999884,288.89916123382744
9.639999999999883,444.0372202870689
9.659999999999883,642.2526756419496
9.679999999999882,869.1167246021263
9.699999999999882,1095.1260568022665
9.719999999999882,1280.2087482155903
9.739999999999881,1385.0282515696517
9.75999999999988,1385.0282515703047
9.77999999999988,1280.208748217391
9.79999999999988,1095.1260568048053
9.81999999999988,869.1167246049021
9.839999999999879,642.252675644532
9.859999999999879,444.0372202891925
9.879999999999878,288.8991612354076
9.899999999999878,178.08633058152384
9.919999999999877,104.80594999423612
9.939999999999877,59.38044348765187
9.959999999999877,32.68092617588415
9.979999999999876,17.637165334504896
9.999999999999876,9.424777960806326
10.019999999999875,5.036321762926235
10.039999999999875,2.717990277644745
10.059999999999874,1.4958871034522194
10.079999999999874,0.8475324121893802
10.099999999999874,0.498783030232098
10.119999999999873,0.3074652042272018
10.139999999999873,0.2000427791895401
10.159999999999872,0.13830450689992954
10.179999999999872,0.10220311851722755
10.199999999999871,0.08111069867991536
10.219999999999871,0.06938434043168344
10.23999999999987,0.06413330522979536
10.25999999999987,0.06413330522976245
10.27999999999987,0.06938434043157708
10.29999999999987,0.0811106986797104
10.319999999999869,0.10220311851687318
10.339999999999868,0.13830450689932358
10.359999999999868,0.20004277918850188
10.379999999999868,0.3074652042253689
10.399999999999867,0.4987830302287978
10.419999999999867,0.8475324121833326
10.439999999999866,1.4958871034408439
10.459999999999866,2.7179902776231204
10.479999999999865,5.036321762885546
10.499999999999865,9.424777960729244
10.519999999999865,17.637165334361164
10.539999999999864,32.68092617562639
